"Energy (eV)"	"Flux (ph/s/0.1%B.W.)"
5.00000e+1	3.53324e+12
6.00000e+1	4.00141e+12
7.00000e+1	4.44578e+12
8.00000e+1	4.87067e+12
9.00000e+1	5.27916e+12
1.00000e+2	5.67352e+12
1.10000e+2	6.05550e+12
1.20000e+2	6.42648e+12
1.30000e+2	6.78758e+12
1.40000e+2	7.13969e+12
1.50000e+2	7.48359e+12
1.60000e+2	7.81992e+12
1.70000e+2	8.14923e+12
1.80000e+2	8.47198e+12
1.90000e+2	8.78860e+12
2.00000e+2	9.09944e+12
2.10000e+2	9.40483e+12
2.20000e+2	9.70506e+12
2.30000e+2	1.00004e+13
2.40000e+2	1.02910e+13
2.50000e+2	1.05772e+13
2.60000e+2	1.08590e+13
2.70000e+2	1.11368e+13
2.80000e+2	1.14106e+13
2.90000e+2	1.16806e+13
3.00000e+2	1.19469e+13
3.10000e+2	1.22097e+13
3.20000e+2	1.24690e+13
3.30000e+2	1.27250e+13
3.40000e+2	1.29778e+13
3.50000e+2	1.32274e+13
3.60000e+2	1.34740e+13
3.70000e+2	1.37177e+13
3.80000e+2	1.39584e+13
3.90000e+2	1.41963e+13
4.00000e+2	1.44315e+13
4.10000e+2	1.46640e+13
4.20000e+2	1.48939e+13
4.30000e+2	1.51212e+13
4.40000e+2	1.53460e+13
4.50000e+2	1.55683e+13
4.60000e+2	1.57882e+13
4.70000e+2	1.60058e+13
4.80000e+2	1.62211e+13
4.90000e+2	1.64341e+13
5.00000e+2	1.66449e+13
5.10000e+2	1.68535e+13
5.20000e+2	1.70599e+13
5.30000e+2	1.72643e+13
5.40000e+2	1.74665e+13
5.50000e+2	1.76668e+13
5.60000e+2	1.78650e+13
5.70000e+2	1.80612e+13
5.80000e+2	1.82556e+13
5.90000e+2	1.84480e+13
6.00000e+2	1.86385e+13
6.10000e+2	1.88272e+13
6.20000e+2	1.90140e+13
6.30000e+2	1.91990e+13
6.40000e+2	1.93823e+13
6.50000e+2	1.95638e+13
6.60000e+2	1.97436e+13
6.70000e+2	1.99217e+13
6.80000e+2	2.00981e+13
6.90000e+2	2.02728e+13
7.00000e+2	2.04459e+13
7.10000e+2	2.06174e+13
7.20000e+2	2.07873e+13
7.30000e+2	2.09556e+13
7.40000e+2	2.11223e+13
7.50000e+2	2.12876e+13
7.60000e+2	2.14513e+13
7.70000e+2	2.16134e+13
7.80000e+2	2.17742e+13
7.90000e+2	2.19334e+13
8.00000e+2	2.20912e+13
8.10000e+2	2.22475e+13
8.20000e+2	2.24025e+13
8.30000e+2	2.25560e+13
8.40000e+2	2.27082e+13
8.50000e+2	2.28589e+13
8.60000e+2	2.30083e+13
8.70000e+2	2.31564e+13
8.80000e+2	2.33032e+13
8.90000e+2	2.34486e+13
9.00000e+2	2.35927e+13
9.10000e+2	2.37355e+13
9.20000e+2	2.38771e+13
9.30000e+2	2.40174e+13
9.40000e+2	2.41565e+13
9.50000e+2	2.42943e+13
9.60000e+2	2.44309e+13
9.70000e+2	2.45662e+13
9.80000e+2	2.47004e+13
9.90000e+2	2.48334e+13
1.00000e+3	2.49652e+13
1.01000e+3	2.50958e+13
1.02000e+3	2.52253e+13
1.03000e+3	2.53537e+13
1.04000e+3	2.54809e+13
1.05000e+3	2.56069e+13
1.06000e+3	2.57319e+13
1.07000e+3	2.58558e+13
1.08000e+3	2.59785e+13
1.09000e+3	2.61002e+13
1.10000e+3	2.62208e+13
1.11000e+3	2.63404e+13
1.12000e+3	2.64589e+13
1.13000e+3	2.65763e+13
1.14000e+3	2.66927e+13
1.15000e+3	2.68081e+13
1.16000e+3	2.69225e+13
1.17000e+3	2.70359e+13
1.18000e+3	2.71482e+13
1.19000e+3	2.72596e+13
1.20000e+3	2.73700e+13
1.21000e+3	2.74794e+13
1.22000e+3	2.75878e+13
1.23000e+3	2.76953e+13
1.24000e+3	2.78018e+13
1.25000e+3	2.79074e+13
1.26000e+3	2.80121e+13
1.27000e+3	2.81158e+13
1.28000e+3	2.82186e+13
1.29000e+3	2.83205e+13
1.30000e+3	2.84215e+13
1.31000e+3	2.85216e+13
1.32000e+3	2.86208e+13
1.33000e+3	2.87191e+13
1.34000e+3	2.88166e+13
1.35000e+3	2.89131e+13
1.36000e+3	2.90089e+13
1.37000e+3	2.91037e+13
1.38000e+3	2.91977e+13
1.39000e+3	2.92909e+13
1.40000e+3	2.93833e+13
1.41000e+3	2.94748e+13
1.42000e+3	2.95655e+13
1.43000e+3	2.96554e+13
1.44000e+3	2.97444e+13
1.45000e+3	2.98327e+13
1.46000e+3	2.99202e+13
1.47000e+3	3.00069e+13
1.48000e+3	3.00928e+13
1.49000e+3	3.01779e+13
1.50000e+3	3.02623e+13
1.51000e+3	3.03459e+13
1.52000e+3	3.04287e+13
1.53000e+3	3.05108e+13
1.54000e+3	3.05921e+13
1.55000e+3	3.06727e+13
1.56000e+3	3.07525e+13
1.57000e+3	3.08317e+13
1.58000e+3	3.09101e+13
1.59000e+3	3.09877e+13
1.60000e+3	3.10647e+13
1.61000e+3	3.11410e+13
1.62000e+3	3.12165e+13
1.63000e+3	3.12914e+13
1.64000e+3	3.13655e+13
1.65000e+3	3.14390e+13
1.66000e+3	3.15118e+13
1.67000e+3	3.15839e+13
1.68000e+3	3.16553e+13
1.69000e+3	3.17261e+13
1.70000e+3	3.17962e+13
1.71000e+3	3.18657e+13
1.72000e+3	3.19345e+13
1.73000e+3	3.20026e+13
1.74000e+3	3.20701e+13
1.75000e+3	3.21370e+13
1.76000e+3	3.22032e+13
1.77000e+3	3.22688e+13
1.78000e+3	3.23338e+13
1.79000e+3	3.23982e+13
1.80000e+3	3.24619e+13
1.81000e+3	3.25250e+13
1.82000e+3	3.25875e+13
1.83000e+3	3.26495e+13
1.84000e+3	3.27108e+13
1.85000e+3	3.27715e+13
1.86000e+3	3.28317e+13
1.87000e+3	3.28912e+13
1.88000e+3	3.29502e+13
1.89000e+3	3.30086e+13
1.90000e+3	3.30664e+13
1.91000e+3	3.31237e+13
1.92000e+3	3.31803e+13
1.93000e+3	3.32365e+13
1.94000e+3	3.32920e+13
1.95000e+3	3.33471e+13
1.96000e+3	3.34015e+13
1.97000e+3	3.34555e+13
1.98000e+3	3.35088e+13
1.99000e+3	3.35617e+13
2.00000e+3	3.36140e+13
2.01000e+3	3.36658e+13
2.02000e+3	3.37170e+13
2.03000e+3	3.37678e+13
2.04000e+3	3.38180e+13
2.05000e+3	3.38677e+13
2.06000e+3	3.39169e+13
2.07000e+3	3.39655e+13
2.08000e+3	3.40137e+13
2.09000e+3	3.40614e+13
2.10000e+3	3.41086e+13
2.11000e+3	3.41553e+13
2.12000e+3	3.42015e+13
2.13000e+3	3.42472e+13
2.14000e+3	3.42924e+13
2.15000e+3	3.43371e+13
2.16000e+3	3.43814e+13
2.17000e+3	3.44252e+13
2.18000e+3	3.44685e+13
2.19000e+3	3.45114e+13
2.20000e+3	3.45538e+13
2.21000e+3	3.45957e+13
2.22000e+3	3.46372e+13
2.23000e+3	3.46782e+13
2.24000e+3	3.47188e+13
2.25000e+3	3.47589e+13
2.26000e+3	3.47986e+13
2.27000e+3	3.48378e+13
2.28000e+3	3.48766e+13
2.29000e+3	3.49150e+13
2.30000e+3	3.49529e+13
2.31000e+3	3.49904e+13
2.32000e+3	3.50275e+13
2.33000e+3	3.50641e+13
2.34000e+3	3.51003e+13
2.35000e+3	3.51361e+13
2.36000e+3	3.51715e+13
2.37000e+3	3.52065e+13
2.38000e+3	3.52411e+13
2.39000e+3	3.52753e+13
2.40000e+3	3.53090e+13
2.41000e+3	3.53424e+13
2.42000e+3	3.53753e+13
2.43000e+3	3.54079e+13
2.44000e+3	3.54401e+13
2.45000e+3	3.54719e+13
2.46000e+3	3.55032e+13
2.47000e+3	3.55343e+13
2.48000e+3	3.55649e+13
2.49000e+3	3.55951e+13
2.50000e+3	3.56250e+13
2.51000e+3	3.56545e+13
2.52000e+3	3.56836e+13
2.53000e+3	3.57124e+13
2.54000e+3	3.57408e+13
2.55000e+3	3.57688e+13
2.56000e+3	3.57964e+13
2.57000e+3	3.58237e+13
2.58000e+3	3.58507e+13
2.59000e+3	3.58773e+13
2.60000e+3	3.59035e+13
2.61000e+3	3.59294e+13
2.62000e+3	3.59549e+13
2.63000e+3	3.59801e+13
2.64000e+3	3.60049e+13
2.65000e+3	3.60294e+13
2.66000e+3	3.60536e+13
2.67000e+3	3.60774e+13
2.68000e+3	3.61009e+13
2.69000e+3	3.61241e+13
2.70000e+3	3.61469e+13
2.71000e+3	3.61695e+13
2.72000e+3	3.61916e+13
2.73000e+3	3.62135e+13
2.74000e+3	3.62350e+13
2.75000e+3	3.62563e+13
2.76000e+3	3.62772e+13
2.77000e+3	3.62978e+13
2.78000e+3	3.63180e+13
2.79000e+3	3.63380e+13
2.80000e+3	3.63577e+13
2.81000e+3	3.63770e+13
2.82000e+3	3.63961e+13
2.83000e+3	3.64148e+13
2.84000e+3	3.64333e+13
2.85000e+3	3.64514e+13
2.86000e+3	3.64693e+13
2.87000e+3	3.64868e+13
2.88000e+3	3.65041e+13
2.89000e+3	3.65211e+13
2.90000e+3	3.65378e+13
2.91000e+3	3.65542e+13
2.92000e+3	3.65703e+13
2.93000e+3	3.65861e+13
2.94000e+3	3.66017e+13
2.95000e+3	3.66170e+13
2.96000e+3	3.66320e+13
2.97000e+3	3.66467e+13
2.98000e+3	3.66611e+13
2.99000e+3	3.66753e+13
3.00000e+3	3.66892e+13
3.01000e+3	3.67029e+13
3.02000e+3	3.67163e+13
3.03000e+3	3.67294e+13
3.04000e+3	3.67422e+13
3.05000e+3	3.67548e+13
3.06000e+3	3.67671e+13
3.07000e+3	3.67792e+13
3.08000e+3	3.67910e+13
3.09000e+3	3.68026e+13
3.10000e+3	3.68139e+13
3.11000e+3	3.68250e+13
3.12000e+3	3.68358e+13
3.13000e+3	3.68464e+13
3.14000e+3	3.68567e+13
3.15000e+3	3.68668e+13
3.16000e+3	3.68766e+13
3.17000e+3	3.68862e+13
3.18000e+3	3.68956e+13
3.19000e+3	3.69047e+13
3.20000e+3	3.69136e+13
3.21000e+3	3.69222e+13
3.22000e+3	3.69306e+13
3.23000e+3	3.69388e+13
3.24000e+3	3.69468e+13
3.25000e+3	3.69545e+13
3.26000e+3	3.69620e+13
3.27000e+3	3.69693e+13
3.28000e+3	3.69763e+13
3.29000e+3	3.69832e+13
3.30000e+3	3.69898e+13
3.31000e+3	3.69962e+13
3.32000e+3	3.70023e+13
3.33000e+3	3.70083e+13
3.34000e+3	3.70140e+13
3.35000e+3	3.70196e+13
3.36000e+3	3.70249e+13
3.37000e+3	3.70300e+13
3.38000e+3	3.70349e+13
3.39000e+3	3.70396e+13
3.40000e+3	3.70441e+13
3.41000e+3	3.70483e+13
3.42000e+3	3.70524e+13
3.43000e+3	3.70563e+13
3.44000e+3	3.70600e+13
3.45000e+3	3.70634e+13
3.46000e+3	3.70667e+13
3.47000e+3	3.70698e+13
3.48000e+3	3.70727e+13
3.49000e+3	3.70753e+13
3.50000e+3	3.70778e+13
3.51000e+3	3.70801e+13
3.52000e+3	3.70822e+13
3.53000e+3	3.70842e+13
3.54000e+3	3.70859e+13
3.55000e+3	3.70875e+13
3.56000e+3	3.70888e+13
3.57000e+3	3.70900e+13
3.58000e+3	3.70910e+13
3.59000e+3	3.70918e+13
3.60000e+3	3.70924e+13
3.61000e+3	3.70929e+13
3.62000e+3	3.70932e+13
3.63000e+3	3.70933e+13
3.64000e+3	3.70932e+13
3.65000e+3	3.70929e+13
3.66000e+3	3.70925e+13
3.67000e+3	3.70919e+13
3.68000e+3	3.70911e+13
3.69000e+3	3.70902e+13
3.70000e+3	3.70891e+13
3.71000e+3	3.70878e+13
3.72000e+3	3.70864e+13
3.73000e+3	3.70848e+13
3.74000e+3	3.70830e+13
3.75000e+3	3.70810e+13
3.76000e+3	3.70789e+13
3.77000e+3	3.70767e+13
3.78000e+3	3.70743e+13
3.79000e+3	3.70717e+13
3.80000e+3	3.70690e+13
3.81000e+3	3.70661e+13
3.82000e+3	3.70630e+13
3.83000e+3	3.70598e+13
3.84000e+3	3.70564e+13
3.85000e+3	3.70529e+13
3.86000e+3	3.70493e+13
3.87000e+3	3.70455e+13
3.88000e+3	3.70415e+13
3.89000e+3	3.70374e+13
3.90000e+3	3.70331e+13
3.91000e+3	3.70287e+13
3.92000e+3	3.70242e+13
3.93000e+3	3.70195e+13
3.94000e+3	3.70146e+13
3.95000e+3	3.70096e+13
3.96000e+3	3.70045e+13
3.97000e+3	3.69992e+13
3.98000e+3	3.69938e+13
3.99000e+3	3.69883e+13
4.00000e+3	3.69826e+13
4.01000e+3	3.69768e+13
4.02000e+3	3.69708e+13
4.03000e+3	3.69647e+13
4.04000e+3	3.69585e+13
4.05000e+3	3.69522e+13
4.06000e+3	3.69457e+13
4.07000e+3	3.69390e+13
4.08000e+3	3.69323e+13
4.09000e+3	3.69254e+13
4.10000e+3	3.69184e+13
4.11000e+3	3.69112e+13
4.12000e+3	3.69040e+13
4.13000e+3	3.68966e+13
4.14000e+3	3.68890e+13
4.15000e+3	3.68814e+13
4.16000e+3	3.68736e+13
4.17000e+3	3.68657e+13
4.18000e+3	3.68577e+13
4.19000e+3	3.68496e+13
4.20000e+3	3.68413e+13
4.21000e+3	3.68329e+13
4.22000e+3	3.68244e+13
4.23000e+3	3.68158e+13
4.24000e+3	3.68071e+13
4.25000e+3	3.67982e+13
4.26000e+3	3.67893e+13
4.27000e+3	3.67802e+13
4.28000e+3	3.67710e+13
4.29000e+3	3.67617e+13
4.30000e+3	3.67523e+13
4.31000e+3	3.67427e+13
4.32000e+3	3.67331e+13
4.33000e+3	3.67233e+13
4.34000e+3	3.67135e+13
4.35000e+3	3.67035e+13
4.36000e+3	3.66934e+13
4.37000e+3	3.66832e+13
4.38000e+3	3.66729e+13
4.39000e+3	3.66625e+13
4.40000e+3	3.66520e+13
4.41000e+3	3.66414e+13
4.42000e+3	3.66307e+13
4.43000e+3	3.66199e+13
4.44000e+3	3.66090e+13
4.45000e+3	3.65979e+13
4.46000e+3	3.65868e+13
4.47000e+3	3.65756e+13
4.48000e+3	3.65643e+13
4.49000e+3	3.65529e+13
4.50000e+3	3.65413e+13
4.51000e+3	3.65297e+13
4.52000e+3	3.65180e+13
4.53000e+3	3.65062e+13
4.54000e+3	3.64943e+13
4.55000e+3	3.64823e+13
4.56000e+3	3.64702e+13
4.57000e+3	3.64580e+13
4.58000e+3	3.64457e+13
4.59000e+3	3.64333e+13
4.60000e+3	3.64209e+13
4.61000e+3	3.64083e+13
4.62000e+3	3.63957e+13
4.63000e+3	3.63829e+13
4.64000e+3	3.63701e+13
4.65000e+3	3.63572e+13
4.66000e+3	3.63442e+13
4.67000e+3	3.63311e+13
4.68000e+3	3.63179e+13
4.69000e+3	3.63047e+13
4.70000e+3	3.62913e+13
4.71000e+3	3.62779e+13
4.72000e+3	3.62644e+13
4.73000e+3	3.62508e+13
4.74000e+3	3.62371e+13
4.75000e+3	3.62233e+13
4.76000e+3	3.62095e+13
4.77000e+3	3.61955e+13
4.78000e+3	3.61815e+13
4.79000e+3	3.61674e+13
4.80000e+3	3.61533e+13
4.81000e+3	3.61390e+13
4.82000e+3	3.61247e+13
4.83000e+3	3.61103e+13
4.84000e+3	3.60958e+13
4.85000e+3	3.60813e+13
4.86000e+3	3.60666e+13
4.87000e+3	3.60519e+13
4.88000e+3	3.60371e+13
4.89000e+3	3.60223e+13
4.90000e+3	3.60073e+13
4.91000e+3	3.59923e+13
4.92000e+3	3.59772e+13
4.93000e+3	3.59621e+13
4.94000e+3	3.59469e+13
4.95000e+3	3.59316e+13
4.96000e+3	3.59162e+13
4.97000e+3	3.59007e+13
4.98000e+3	3.58852e+13
4.99000e+3	3.58697e+13
5.00000e+3	3.58540e+13